voltage,current,power
0.0,1.935,0.0
0.09999999999999999,1.934364024786222,0.19343640247862218
0.19999999999999998,1.9343105029244154,0.3868621005848831
0.3,1.9342568053300278,0.5802770415990083
0.39999999999999997,1.934203107311543,0.7736812429246172
0.49999999999999994,1.9341494087966187,0.9670747043983092
0.6,1.9340957097648843,1.1604574258589306
0.7,1.9340420101951163,1.3538294071365813
0.7999999999999999,1.9339883100652195,1.5471906480521755
0.8999999999999999,1.9339346093521919,1.7405411484169726
0.9999999999999999,1.933880908032086,1.9338809080320858
1.0999999999999999,1.9338272060799713,2.1272099266879683
1.2,1.933773503469894,2.320528204163873
1.2999999999999998,1.9337198001748332,2.513835740227283
1.4,1.9336660961666599,2.7071325346333235
1.4999999999999998,1.9336123914160888,2.9004185871241326
1.5999999999999999,1.9335586858926326,3.0936938974282118
1.7,1.9335049795645516,3.2869584652597377
1.7999999999999998,1.9334512723988024,3.480212290317844
1.9,1.9333975643609858,3.673455372285873
1.9999999999999998,1.9333438554152886,3.866687710830577
2.0999999999999996,1.9332901455244278,4.059909305601297
2.1999999999999997,1.9332364346495887,4.253120156229095
2.3,1.9331827227503633,4.446320262325835
2.4,1.9331290097846834,4.63950962348324
2.5,1.933075295708754,4.832688239271885
2.5999999999999996,1.9330215804769812,5.02585610924015
2.6999999999999997,1.9329678640418986,5.219013232913126
2.8,1.9329141463540906,5.412159609791454
2.9,1.9328604273621126,5.605295239350126
2.9999999999999996,1.932806707012407,5.79842012103722
3.0999999999999996,1.9327529852492171,5.9915342542725725
3.1999999999999997,1.932699262014496,6.184637638446387
3.3,1.9326455372478137,6.377730272917785
3.4,1.932591810886258,6.570812157013277
3.4999999999999996,1.9325380828643333,6.7638832900251655
3.5999999999999996,1.9324843531138542,6.956943671209874
3.6999999999999997,1.9324306215638358,7.149993299786192
3.8,1.9323768881403771,7.343032174933433
3.8999999999999995,1.9323231527665434,7.536060295789518
3.9999999999999996,1.9322694153622395,7.729077661448957
4.1,1.9322156758440818,7.922084270960735
4.199999999999999,1.9321619341252623,8.1150801233261
4.3,1.9321081901154076,8.308065217496253
4.3999999999999995,1.9320544437204334,8.501039552369907
4.5,1.9320006948423918,8.694003126790763
4.6,1.9319469433793124,8.886955939544837
4.699999999999999,1.9318931892250373,9.079897989357674
4.8,1.9318394322690489,9.272829274891434
4.8999999999999995,1.9317856723962914,9.465749794741827
5.0,1.931731909486984,9.65865954743492
5.1,1.9316781434164267,9.851558531423775
5.199999999999999,1.931624374054799,10.044446745084953
5.3,1.9315706012669485,10.237324186714826
5.3999999999999995,1.9315168249121735,10.430190854525735
5.499999999999999,1.9314630448439931,10.623046746641961
5.6,1.9314092609099123,10.815891861095508
5.699999999999999,1.9313554729511724,11.008726195821682
5.8,1.931301680802496,11.201549748654477
5.8999999999999995,1.9312478842918182,11.394362517321726
5.999999999999999,1.9311940832400079,11.587164499440046
6.1,1.9311402774605775,11.779955692509523
6.199999999999999,1.9310864667593814,11.972736093908164
6.3,1.9310326509343019,12.1655057008861
6.3999999999999995,1.9309788297749197,12.358264510559485
6.499999999999999,1.9309250030621756,12.55101251990414
6.6,1.9308711705680137,12.74374972574889
6.699999999999999,1.9308173320550128,12.936476124768584
6.8,1.9307634872760027,13.129191713476818
6.8999999999999995,1.9307096359736615,13.321896488218263
6.999999999999999,1.930655777880101,13.514590445160705
7.1,1.9306019127164316,13.707273580286664
7.199999999999999,1.9305480401923107,13.899945889384636
7.3,1.9304941600054732,14.092607368039955
7.3999999999999995,1.9304402718412401,14.285258011625176
7.499999999999999,1.9303863753720107,14.47789781529008
7.6,1.9303324702567304,14.670526773951151
7.699999999999999,1.9302785561403393,14.863144882280611
7.799999999999999,1.9302246326531962,15.055752134694929
7.8999999999999995,1.9301706994104808,15.248348525342797
7.999999999999999,1.9301167560115695,15.440934048092554
8.1,1.9300628020393868,15.633508696519034
8.2,1.9300088370597295,15.82607246388978
8.299999999999999,1.9299548606205637,16.018625343150678
8.399999999999999,1.9299008722512916,16.211167326910846
8.5,1.9298468714619914,16.403698407426926
8.6,1.9297928577426207,16.596218576586537
8.7,1.9297388305621928,16.788727825891076
8.799999999999999,1.9296847893679154,16.981226146437653
8.899999999999999,1.9296307335842953,17.173713528900226
9.0,1.929576662612206,17.366189963509854
9.1,1.9295225758279182,17.558655440034055
9.2,1.929468472582088,17.75110994775521
9.299999999999999,1.9294143521987064,17.943553475447967
9.399999999999999,1.9293602139740031,18.135986011355627
9.5,1.9293060571753076,18.328407543165422
9.6,1.9292518810398618,18.520818057982673
9.7,1.9291976847735843,18.713217542303767
9.799999999999999,1.9291434675497843,18.905605981987883
9.899999999999999,1.9290892285078234,19.09798336222745
10.0,1.9290349667517201,19.2903496675172
10.1,1.9289806813486992,19.48270488162186
10.2,1.9289263713276805,19.67504898754234
10.299999999999999,1.928872035677707,19.86738196748038
10.399999999999999,1.9288176733463058,20.05970380280158
10.5,1.9287632832377846,20.252014473996738
10.6,1.928708864211456,20.444313960641434
10.7,1.9286544150797902,20.636602241353753
10.799999999999999,1.9285999346064915,20.828879293750106
10.899999999999999,1.9285454215044957,21.021145094399
10.999999999999998,1.9284908744338862,21.213399618772744
11.1,1.928436291999722,21.405642841196915
11.2,1.9283816727497796,21.59787473479753
11.299999999999999,1.9283270151722,21.79009527144586
11.399999999999999,1.9282723176930416,21.982304421700672
11.499999999999998,1.9282175786737275,22.174502154747863
11.6,1.928162796408395,22.36668843833738
11.7,1.9281079691211307,22.558863238717226
11.799999999999999,1.9280530949630945,22.751026520564512
11.899999999999999,1.9279981720095254,22.943178246913348
11.999999999999998,1.9279431982566224,23.135318379079465
12.1,1.9278881716183025,23.327446876581458
12.2,1.9278330899228178,23.519563697058377
12.299999999999999,1.927777950909241,23.711668796183663
12.399999999999999,1.9277227522238023,23.903762127575146
12.499999999999998,1.9276674914160776,24.095843642700967
12.6,1.9276121659350196,24.287913290781248
12.7,1.9275567731248262,24.47997101868529
12.799999999999999,1.927501310220639,24.67201677082418
12.899999999999999,1.9274457743440663,24.86405048903845
12.999999999999998,1.9273901624985197,25.056072112480752
13.1,1.927334471564363,25.248081577493153
13.2,1.9272786982938586,25.44007881747893
13.299999999999999,1.9272228393059083,25.632063762768578
13.399999999999999,1.9271668910805777,25.82403634047974
13.499999999999998,1.927110849953395,26.01599647437083
13.6,1.9270547121094177,26.20794408468808
13.7,1.9269984735770542,26.39987908800564
13.799999999999999,1.9269421302216316,26.591801397058514
13.899999999999999,1.9268856777387005,26.783710920567934
13.999999999999998,1.9268291116470655,26.975607563058915
14.1,1.926772427281526,27.16749122466952
14.2,1.9267156197853255,27.35936180095162
14.299999999999999,1.926658684102283,27.551219182662646
14.399999999999999,1.926601614968609,27.743063255547966
14.499999999999998,1.9265444069043802,27.93489390011351
14.6,1.9264870542046677,28.126710991388148
14.7,1.9264295509302984,28.318514398675386
14.799999999999999,1.926371890898239,28.510303985293934
14.899999999999999,1.9263140676715858,28.702079608306626
14.999999999999998,1.9262560745491413,28.893841118237116
15.099999999999998,1.926197904554566,29.085588358773943
15.2,1.926139550425083,29.27732116646126
15.299999999999999,1.9260810045997179,29.469039370375683
15.399999999999999,1.9260222592070626,29.66074279178876
15.499999999999998,1.9259633060525272,29.852431243814166
15.599999999999998,1.925904136605077,30.0441045310392
15.7,1.9258447419834221,30.235762449139727
15.799999999999999,1.9257851129416395,30.4274047844779
15.899999999999999,1.9257252398542068,30.619031313681887
15.999999999999998,1.9256651127004225,30.810641803206757
16.099999999999998,1.925604721048186,31.00223600887579
16.2,1.9255440540371112,31.1938136754012
16.299999999999997,1.9254831003609505,31.38537453588349
16.4,1.925421848249295,31.576918311288438
16.5,1.9253602854485259,31.768444709900677
16.599999999999998,1.9252983992019834,31.95995342675292
16.7,1.9252361762293237,32.15144414302971
16.799999999999997,1.925173602705028,32.342916525444465
16.9,1.9251106642360316,32.53437022558893
17.0,1.9250473458384347,32.72580487925339
17.099999999999998,1.924983631913259,32.91722010571672
17.2,1.9249195062212094,33.1086155070048
17.299999999999997,1.9248549518564029,33.299990667115765
17.4,1.9247899512190176,33.4913451512109
17.5,1.9247244859868244,33.68267850476943
17.599999999999998,1.9246585370855493,33.87399025270567
17.7,1.92459208465802,34.06527989844695
17.799999999999997,1.9245251080320527,34.256546922970536
17.9,1.9244575856870174,34.44779078379761
18.0,1.9243894952190377,34.63901091394268
18.099999999999998,1.9243208133047631,34.83020672081621
18.2,1.9242515156636566,35.02137758507855
18.299999999999997,1.9241815770187394,35.21252285944293
18.4,1.9241109710557254,35.40364186742534
18.5,1.9240396703804856,35.59473390203898
18.599999999999998,1.923967646474768,35.78579822443068
18.7,1.9238948696501041,35.976834062456945
18.799999999999997,1.9238213089998326,36.16784060919685
18.9,1.9237469323491552,36.35881702139903
19.0,1.923671706203149,36.54976241785983
19.099999999999998,1.9235955956926545,36.7406758777297
19.2,1.923518564517946,36.931556438744565
19.299999999999997,1.923440574890101,37.12240309537894
19.4,1.9233615874699672,37.313214796917364
19.5,1.92328156130464,37.50399044544048
19.599999999999998,1.9232004537613359,37.69472889372218
19.7,1.923118220458568,37.88542894303379
19.799999999999997,1.9230348151945047,38.07608934085119
19.9,1.9229501898724042,38.26670877846084
20.0,1.9228642944229997,38.45728588845999
20.099999999999998,1.9227770767237162,38.64781924214669
20.2,1.9226884825145873,38.838307346794664
20.299999999999997,1.922598455310739,39.028748642808
20.4,1.9225069363113023,39.21914150075057
20.5,1.9224138643046076,39.40948421824446
20.599999999999998,1.9223191755695113,39.599775016731925
20.7,1.922222803772698,39.79001203809485
20.799999999999997,1.9221246798617952,39.980193341125336
20.9,1.9220247319541317,40.17031689784135
21.0,1.921922885220961,40.36038058964019
21.099999999999998,1.9218190617669706,40.55038220328308
21.2,1.9217131805048817,40.74031942670349
21.299999999999997,1.9216051570249462,40.93018984463135
21.4,1.9214949034591318,41.11999093402542
21.499999999999996,1.921382328339782,41.309720059305306
21.599999999999998,1.9212673364525283,41.49937446737461
21.7,1.9211498286832247,41.688951282425975
21.799999999999997,1.9210297018586615,41.87844750051882
21.9,1.9209068485808123,42.06785998391979
21.999999999999996,1.9207811570543494,42.25718545519568
22.099999999999998,1.9206525109071635,42.44642049104831
22.2,1.9205207890036027,42.63556151587998
22.299999999999997,1.9203858652501435,42.824604795078194
22.4,1.920247608393187,43.01354642800739
22.499999999999996,1.9201058818086691,43.202382340695046
22.599999999999998,1.9199605432831595,43.3911082781994
22.7,1.919811444786104,43.57971979664456
22.799999999999997,1.9196584322328665,43.76821225490935
22.9,1.9195013452381982,43.95658080595474
22.999999999999996,1.9193400168597599,44.14482038777447
23.099999999999998,1.919174273331296,44.33292571395293
23.2,1.9190039337850613,44.52089126381342
23.299999999999997,1.918828809963066,44.70871127213943
23.4,1.918648705916706,44.89637971845092
23.499999999999996,1.9184634176943154,45.083890315816404
23.599999999999998,1.9182727330161717,45.27123649918165
23.7,1.91807643093646,45.4584114131941
23.799999999999997,1.9178742814916845,45.64540789950208
23.9,1.9176660453350003,45.8322184835065
23.999999999999996,1.9174514733559176,46.01883536054201
24.099999999999998,1.9172303062848057,46.20525038146381
24.2,1.9170022742816137,46.39145503761505
24.299999999999997,1.9167670965081915,46.57744044514905
24.4,1.9165244806835828,46.76319732867942
24.499999999999996,1.9162741226216315,46.948716004229965
24.599999999999998,1.9160157057502274,47.13398636145559
24.7,1.9157489006114847,47.318997845103674
24.799999999999997,1.9154733643421282,47.50373943568477
24.9,1.9151887401333365,47.688199629320074
24.999999999999996,1.9148946566692608,47.872366416731516
25.099999999999998,1.914590727543419,48.056227261339814
25.2,1.9142765506521293,48.23976907643366
25.299999999999997,1.9139517075641264,48.422978201372395
25.4,1.9136157628654702,48.60584037678294
25.499999999999996,1.9132682634788338,48.78834071871026
25.599999999999998,1.9129087379562162,48.97046369167913
25.7,1.9125366957441126,49.15219308062369
25.799999999999997,1.9121516264201235,49.33351196163918
25.9,1.911752998899974,49.51440267150932
25.999999999999996,1.9113402606138619,49.6948467759604
26.099999999999998,1.9109128366510388,49.87482503659211
26.2,1.9104701288714852,50.05431737643291
26.299999999999997,1.9100115149835066,50.233302844066216
26.4,1.9095363475860574,50.41175957627191
26.499999999999996,1.9090439531745458,50.589664759125455
26.599999999999998,1.908533631108859,50.766994587495645
26.7,1.9080046525422987,50.943724222879375
26.799999999999997,1.907456259310097,51.11982774951059
26.9,1.9068876627761358,51.29527812867805
26.999999999999996,1.9062980426364717,51.47004715118473
27.099999999999998,1.905686545678228,51.644105387879975
27.2,1.9050522844923876,51.81742213819294
27.299999999999997,1.9043943361389868,51.989965376594334
27.4,1.9037117407631823,52.161701696911194
27.499999999999996,1.9030035001606322,52.33259625441738
27.599999999999998,1.9022685762906062,52.50261270562073
27.7,1.9015058897352104,52.67171314566533
27.799999999999997,1.9007143181030985,52.83985804326613
27.9,1.8998926943759995,53.00700617309038
27.999999999999996,1.8990398051963984,53.173114545499146
28.099999999999998,1.8981543890946626,53.33813833356002
28.2,1.8972351346539214,53.50203079724058
28.299999999999997,1.8962806786109676,53.664743204690375
28.4,1.8952896038914697,53.82622475051774
28.499999999999996,1.8942604375777667,53.986422470966346
28.599999999999998,1.8931916488075267,54.14528115589526
28.7,1.8920816466015582,54.30274325746472
28.799999999999997,1.8909287776190833,54.45874879542959
28.9,1.8897313238388005,54.61323525894133
28.999999999999996,1.888487500164088,54.76613750475855
29.099999999999998,1.887195451950758,54.91738765176706
29.2,1.8858532524557925,55.06691497170914
29.299999999999997,1.8844589002055643,55.214645776023026
29.4,1.883010316282118,55.36050329869426
29.499999999999996,1.881505341526146,55.504407575021304
29.599999999999998,1.879941733655405,55.64627531619998
29.7,1.878317164297414,55.78601977963319
29.799999999999997,1.8766292159353928,55.9235506348747
29.9,1.8748753787665413,56.05877382511958
29.999999999999996,1.8730530474719096,56.19159142415728
30.099999999999998,1.8711595178972709,56.32190148870785
30.199999999999996,1.8691919836446156,56.44959790606738
30.299999999999997,1.8671475325740763,56.574570236994504
30.4,1.8650231432163402,56.69670355377674
30.499999999999996,1.8628156810958556,56.81587827342359
30.599999999999998,1.8605218949654143,56.93196998594168
30.699999999999996,1.8581384129530156,57.04484927765757
30.799999999999997,1.8556617386222343,57.15438154956481
30.9,1.8530882469476906,57.260426830683635
30.999999999999996,1.8504141802076213,57.36283958643625
31.099999999999998,1.8476356437959633,57.46146852205445
31.199999999999996,1.8447486019568486,57.55615638105367
31.299999999999997,1.8417488734448837,57.646739738824856
31.4,1.8386321271151462,57.73304879141559
31.499999999999996,1.8353938774473915,57.814907139592826
31.599999999999998,1.8320294800095878,57.89213156830297
31.699999999999996,1.8285341268665471,57.96453182166954
31.799999999999997,1.8249028419401316,58.03191037369618
31.9,1.8211304763282425,58.094062194870936
31.999999999999996,1.8172117035906004,58.150774514899204
32.099999999999994,1.8131410150101486,58.201826581825756
32.199999999999996,1.8089127148397945,58.24698941784138
32.3,1.804520915545119,58.286025572107334
32.4,1.7999595330546532,58.31868887097076
32.5,1.7952222820303358,58.344724165985916
32.599999999999994,1.790302671171803,58.36386708020077
32.699999999999996,1.7851939985692666,58.37584375321501
32.8,1.77988934712086,58.38037058556421
32.9,1.7743815800314902,58.377153983036024
33.0,1.768663336411441,58.365890101577556
33.099999999999994,1.7627270269941766,58.346264593507236
33.199999999999996,1.7565648299940495,58.31795235580243
33.3,1.7501686871258704,58.28061728129148
33.4,1.7435302998095552,58.23391201363914
33.5,1.7366411255843286,58.177477707075006
33.599999999999994,1.729492374758231,58.11094379187655
33.699999999999996,1.7220750073198803,58.03392774667996
33.8,1.7143797301406811,57.946034878755015
33.9,1.7063969944967865,57.84685811344106
34.0,1.6981169939412557,57.73597779400269
34.099999999999994,1.6895296625578589,57.612961493222976
34.199999999999996,1.6806246736289225,57.47736383810914
34.3,1.6713914387504498,57.328726349140425
34.4,1.661819107428445,57.1665772955385
34.5,1.6518965671909565,56.990431568088
34.599999999999994,1.6416124442507443,56.79979057107574
34.699999999999996,1.6309551047537036,56.59414213495351
34.8,1.6199126566482074,56.37296045135761
34.9,1.6084729522102905,56.13570603213914
35.0,1.5966235912591753,55.88182569407113
35.099999999999994,1.5843519250969174,55.61075257090179
35.199999999999996,1.571645061204891,55.321906154412154
35.3,1.5584898687285949,55.01469236611939
35.4,1.5448729847805367,54.688503661230996
35.5,1.5307808215890022,54.34271916640958
35.599999999999994,1.5161995745181718,53.97670485284691
35.699999999999996,1.5011152309823077,53.58981374606838
35.8,1.4855135802736583,53.181386173796966
35.9,1.4693802243202225,52.750750053095985
36.0,1.4527005893856744,52.29722121788428
36.099999999999994,1.4354599387194737,51.82010378777299
36.199999999999996,1.417643386160572,51.318690579012696
36.3,1.3992359106931607,50.79226355816173
36.4,1.380222371947517,50.24009433888962
36.5,1.3605875266334433,49.66144472212068
36.599999999999994,1.3403160458877674,49.05556727949228
36.699999999999996,1.3193925335112937,48.42170597986448
36.8,1.2978015450641414,47.7590968583604
36.9,1.2755276077818691,47.06696872715097
37.0,1.2525552412682306,46.34454392692453
37.099999999999994,1.2288689789136262,45.59103911769552
37.199999999999996,1.2044533899817773,44.80566610732211
37.3,1.1792931023005764,43.98763271581149
37.4,1.1533728254866809,43.136143673201865
37.5,1.126677374627398,42.25040154852742
37.599999999999994,1.0991916943375704,41.32960770709264
37.699999999999996,1.0709008831038331,40.37296329301451
37.8,1.041790217823836,39.379670233741
37.9,1.0118451784435538,38.34893226301069
38.0,0.9810514725923756,37.27995595851027
38.099999999999994,0.9493950601124849,36.17195179028567
38.199999999999996,0.916862177377058,35.024135175803615
38.3,0.8834393612903069,33.83572753741875
38.4,0.8491134728618565,32.605957357895285
38.5,0.8138717202485029,31.33406122956736
38.599999999999994,0.7777016811574042,30.0192848926758
