voltage,current,power
0.0,2.1350000000000002,0.0
0.09999999999999999,2.134303613017759,0.21343036130177587
0.19999999999999998,2.1342500863040574,0.42685001726081145
0.3,2.134196364695593,0.6402589094086779
0.39999999999999997,2.134142641731033,0.8536570566924131
0.49999999999999994,2.1340889172959336,1.0670444586479666
0.6,2.134035191331923,1.2804211147991538
0.7,2.1339814637782935,1.4937870246448053
0.7999999999999999,2.133927734571925,1.70714218765754
0.8999999999999999,2.1338740036471937,1.9204866032824741
0.9999999999999999,2.1338202709358676,2.133820270935867
1.0999999999999999,2.1337665363670077,2.3471431900037083
1.2,2.133712799866857,2.560455359840228
1.2999999999999998,2.1336590613587285,2.7737567797663467
1.4,2.133605320762894,2.9870474490680516
1.4999999999999998,2.1335515779964562,3.2003273669946837
1.5999999999999999,2.1334978329732266,3.4135965327571625
1.7,2.133444085603596,3.626854945526113
1.7999999999999998,2.1333903357943966,3.8401026044299136
1.9,2.13333658344876,4.053339508552644
1.9999999999999998,2.1332828284659713,4.266565656931942
2.0999999999999996,2.1332290707413195,4.47978104855677
2.1999999999999997,2.133175310165933,4.692985682365052
2.3,2.133121546626618,4.90617955724122
2.4,2.1330677800056863,5.119362672013647
2.5,2.133014010180777,5.332535025451942
2.5999999999999996,2.13296023702467,5.545696616264141
2.6999999999999997,2.1329064604050934,5.758847443093751
2.8,2.1328526801845253,5.971987504516671
2.9,2.1327988962199806,6.185116799037944
2.9999999999999996,2.132745108362798,6.398235325088393
3.0999999999999996,2.132691316458414,6.611343081021083
3.1999999999999997,2.132637520346126,6.824440065107603
3.3,2.1325837198588524,7.037526275534213
3.4,2.132529914822876,7.2506017103977785
3.4999999999999996,2.1324761050575827,7.4636663677015385
3.5999999999999996,2.1324222903751866,7.676720245350671
3.6999999999999997,2.132368470580445,7.8897633411476455
3.8,2.1323146454703625,8.102795652787377
3.8999999999999995,2.1322608148338853,8.315817177852152
3.9999999999999996,2.1322069784515767,8.528827913806305
4.1,2.13215313609529,8.741827857990687
4.199999999999999,2.132099287527816,8.954817007616825
4.3,2.1320454325025295,9.167795359760877
4.3999999999999995,2.1319915707630113,9.380762911357248
4.5,2.131937702042662,9.59371965919198
4.6,2.1318838260642945,9.806665599895753
4.699999999999999,2.1318299425397167,10.019600729936666
4.8,2.131776051169293,10.232525045612606
4.8999999999999995,2.1317221516414917,10.445438543043307
5.0,2.131668243632409,10.658341218162043
5.1,2.1316143268052814,10.871233066706935
5.199999999999999,2.131560400809973,11.084114084211858
5.3,2.1315064652824467,11.296984265996967
5.3999999999999995,2.1314525198442085,11.509843607158725
5.499999999999999,2.1313985641017377,11.722692102559556
5.6,2.1313445976458874,11.935529746816968
5.699999999999999,2.131290620051265,12.148356534292208
5.8,2.131236630875587,12.361172459078404
5.8999999999999995,2.131182629659009,12.573977514988151
5.999999999999999,2.1311286159234264,12.786771695540557
6.1,2.131074589171753,12.999554993947694
6.199999999999999,2.131020548887163,13.21232740310041
6.3,2.1309664945323115,13.425088915553562
6.3999999999999995,2.130912425548516,13.6378395235105
6.499999999999999,2.1308583413549105,13.850579218806915
6.6,2.1308042413475667,14.06330799289394
6.699999999999999,2.130750124898575,14.27602583682045
6.8,2.1306959913550956,14.48873274121465
6.8999999999999995,2.130641840038365,14.701428696264717
6.999999999999999,2.1305876702426705,14.914113691698692
7.1,2.130533481234276,15.12678771676336
7.199999999999999,2.1304792722503145,15.339450760202263
7.3,2.130425042497627,15.552102810232677
7.3999999999999995,2.1303707911515604,15.764743854521546
7.499999999999999,2.1303165173547196,15.977373880160394
7.6,2.130262220215666,16.18999287363906
7.699999999999999,2.130207898807564,16.40260082081824
7.799999999999999,2.130153552166779,16.615197706900872
7.8999999999999995,2.1300991792914132,16.827783516402164
7.999999999999999,2.1300447791397894,17.04035823311831
8.1,2.1299903506288675,17.252921840093826
8.2,2.129935892632606,17.46547431958737
8.299999999999999,2.1298814039802543,17.67801565303611
8.399999999999999,2.129826883454574,17.890545821018417
8.5,2.1297723297899984,18.103064803214988
8.6,2.1297177416707083,18.31557257836809
8.7,2.1296631177286414,18.528069124239178
8.799999999999999,2.129608456541415,18.74055441756445
8.899999999999999,2.1295537566301714,18.953028434008523
9.0,2.1294990164573333,19.165491148116
9.1,2.1294442344242746,19.377942533260896
9.2,2.129389408868896,19.59038256159384
9.299999999999999,2.1293345380631035,19.80281120398686
9.399999999999999,2.12927962021019,20.01522842997578
9.5,2.129224653442111,20.227634207700053
9.6,2.1291696358166505,20.440028503839844
9.7,2.129114565314479,20.652411283550446
9.799999999999999,2.12905943983609,20.86478251039368
9.899999999999999,2.1290042571986167,21.077142146266304
10.0,2.128949015132523,21.289490151325232
10.1,2.1288937112781636,21.50182648390945
10.2,2.1288383431822044,21.714151100458484
10.299999999999999,2.128782908293905,21.92646395542722
10.399999999999999,2.1287274039612507,22.138765001197005
10.5,2.12867182742693,22.351054187982765
10.6,2.128616175824158,22.563331463736073
10.7,2.1285604461723273,22.7755967740439
10.799999999999999,2.128504635372491,22.9878500620229
10.899999999999999,2.1284487402026633,23.200091268209025
10.999999999999998,2.128392757312935,23.41232033044228
11.1,2.1283366832203967,23.6245371837464
11.2,2.1282805143038566,23.836741760203193
11.299999999999999,2.1282242467983536,24.048933988821393
11.399999999999999,2.1281678767894463,24.261113795399684
11.499999999999998,2.1281114002072825,24.473281102383744
11.6,2.1280548128204266,24.685435828716948
11.7,2.1279981102294485,24.897577889684545
11.799999999999999,2.1279412878602524,25.109707196750975
11.899999999999999,2.1278843409571437,25.321823657390006
11.999999999999998,2.1278272645756204,25.53392717490744
12.1,2.1277700535748787,25.746017648256032
12.2,2.12771270261002,25.958094971842247
12.299999999999999,2.127655206123951,26.170159035324595
12.399999999999999,2.1275975583389584,26.38220972340308
12.499999999999998,2.1275397532479525,26.594246915599403
12.6,2.127481784605365,26.8062704860276
12.7,2.12742364591768,27.018280303154537
12.799999999999999,2.127365330433594,27.23027622955
12.899999999999999,2.127306831133783,27.442258121625798
12.999999999999998,2.127248140720266,27.654225829363455
13.1,2.127189251605344,27.866179196030007
13.2,2.1271301559001023,28.07811805788135
13.299999999999999,2.127070845402454,28.290042243852636
13.399999999999999,2.1270113115847114,28.50195157523513
13.499999999999998,2.126951545580666,28.71384586533899
13.6,2.126891538172149,28.925724919141228
13.7,2.12683127977507,29.137588532918457
13.799999999999999,2.126770760424889,29.349436493863465
13.899999999999999,2.1267099697615226,29.561268579685162
13.999999999999998,2.126648897013647,29.77308455819105
14.1,2.1265875309823787,29.984884186851538
14.2,2.1265258600243078,30.19666721234517
14.299999999999999,2.1264638720338604,30.408433370084204
14.399999999999999,2.12640155442496,30.620182383719424
14.499999999999998,2.1263388941119628,30.831913964623457
14.6,2.126275877489833,31.04362781135156
14.7,2.126212490413542,31.255323609079067
14.799999999999999,2.1261487181766374,31.46700102901423
14.899999999999999,2.1260845454889763,31.678659727785742
14.999999999999998,2.1260199564535642,31.89029934680346
15.099999999999998,2.125954934542484,32.101919511591504
15.2,2.1258894625718665,32.31351983109237
15.299999999999999,2.1258235226758715,32.52509989694083
15.399999999999999,2.1257570962796373,32.73665928270641
15.499999999999998,2.1256901640711554,32.94819754310291
15.599999999999998,2.1256227059720376,33.15971421316378
15.7,2.125554701107117,33.371208807381734
15.799999999999999,2.125486127772851,33.58268081881104
15.899999999999999,2.125416963404471,33.79412971813108
15.999999999999998,2.125347184541828,34.00555495266924
16.099999999999998,2.1252767667938914,34.21695594538165
16.2,2.125205684801835,34.42833209378973
16.299999999999997,2.1251339122006705,34.63968276887092
16.4,2.125061421579353,34.851007313901384
16.5,2.124988184439312,35.06230504324865
16.599999999999998,2.1249141711513433,35.2735752411123
16.7,2.124839350910789,35.48481716021018
16.799999999999997,2.12476369169095,35.69603002040795
16.9,2.12468716019465,35.907213007289585
17.0,2.12460972180389,36.11836527066613
17.099999999999998,2.1245313405275037,36.32948592302031
17.2,2.1244519789467513,36.54057403788412
17.299999999999997,2.124371598158755,36.75162864814646
17.4,2.124290157717705,36.96264874428806
17.5,2.124207615573735,37.17363327254036
17.599999999999998,2.1241239280093875,37.38458113296522
17.7,2.1240390495735677,37.595491177452146
17.799999999999997,2.123952933012886,37.80636220762937
17.9,2.1238655292002937,38.01719297268525
18.0,2.1237767870608937,38.22798216709609
18.099999999999998,2.123686653494833,38.438728428256475
18.2,2.123595073297142,38.64943033400798
18.299999999999997,2.1235019890744167,38.86008640006182
18.4,2.1234073411582104,39.070695077311065
18.5,2.123311067515016,39.281254749027795
18.599999999999998,2.123213103652694,39.491763727940096
18.7,2.1231133825232105,39.70222025318404
18.799999999999997,2.1230118344215514,39.91262248712516
18.9,2.1229083868806473,40.12296851204423
19.0,2.1228029645621627,40.33325632668109
19.099999999999998,2.122695489142986,40.54348384263103
19.2,2.1225858791972567,40.75364888058733
19.299999999999997,2.122474050073744,40.96374916642325
19.4,2.1223599137684106,41.17378232710716
19.5,2.1222433787919663,41.38374588644334
19.599999999999998,2.1221243500322116,41.59363726063134
19.7,2.1220027286109846,41.8034537536364
19.799999999999997,2.121878411735484,42.013192552362575
19.9,2.121751292543763,42.22285072162089
20.0,2.1216212599441584,42.432425198883166
20.099999999999998,2.1214881984484326,42.64191278881349
20.2,2.1213519879983695,42.85131015756706
20.299999999999997,2.121212503785586,43.06061382684739
20.4,2.121069616064289,43.26982016771149
20.5,2.1209231899567067,43.47892539411249
20.599999999999998,2.1207730852509186,43.68792555616892
20.7,2.1206191561907803,43.89681653314915
20.799999999999997,2.1204612512576517,44.10559402615915
20.9,2.120299212943609,44.31425355052143
21.0,2.120132877515813,44.52279042783207
21.099999999999998,2.1199620747716934,44.731199777682725
21.2,2.119786627784615,44.93947650903383
21.299999999999997,2.1196063526396345,45.14761531122421
21.4,2.119421058159001,45.35561064460262
21.499999999999996,2.119230545616988,45.56345673076523
21.599999999999998,2.1190346084436666,45.7711475423832
21.7,2.118833031917193,45.97867679260308
21.799999999999997,2.1186255928441846,46.186037924003216
21.9,2.1184120592277265,46.393224097087206
21.999999999999996,2.118192189922554,46.600228178296184
22.099999999999998,2.1179657342769214,46.807042727519956
22.2,2.1177324317606625,47.013659985086704
22.299999999999997,2.1174920115789297,47.220071858210126
22.4,2.1172441922710767,47.426269906872115
22.499999999999996,2.1169886812941296,47.63224532911791
22.599999999999998,2.1167251745902855,47.83798894574045
22.7,2.116453356137838,48.043491184328914
22.799999999999997,2.116172897484928,48.24874206265635
22.9,2.115883457265489,48.4537311713797
22.999999999999996,2.1155846806967338,48.65844765602487
23.099999999999998,2.115276199057507,48.86288019822841
23.2,2.1149576291468235,49.067016996206306
23.299999999999997,2.114628572721858,49.27084574441929
23.4,2.1142886159146643,49.47435361240314
23.499999999999996,2.113937328626845,49.677527222730845
23.599999999999998,2.1135742639014032,49.88035262807311
23.7,2.1131989572709498,50.08281528732151
23.799999999999997,2.1128109260814423,50.28490004073832
23.9,2.112409668790591,50.48659108409512
23.999999999999996,2.111994664240049,50.687871941761166
24.099999999999998,2.111565370900472,50.888725438701364
24.2,2.1111212260885144,51.08913367134205
24.299999999999997,2.1106616451547997,51.28907797726163
24.4,2.11018602064187,51.48853890366163
24.499999999999996,2.109693721411104,51.68749617457203
24.599999999999998,2.1091840917375584,51.88592865674393
24.7,2.1086564503716656,52.08381432418014
24.799999999999997,2.1081100895666878,52.281130221253854
24.9,2.1075442740708095,52.47785242436315
24.999999999999996,2.1069582400827165,52.673956002067904
25.099999999999998,2.1063511941694886,52.86941497365416
25.2,2.105722312145608,53.06420226606932
25.299999999999997,2.105070737911854,53.2582896691699
25.4,2.1043955822528404,53.45164778922214
25.499999999999996,2.1036959215919206,53.64424600059397
25.599999999999998,2.1029707967021682,53.8360523955755
25.7,2.102219211372115,54.02703373226336
25.799999999999997,2.1014401310249187,54.2171553804429
25.9,2.1006324812895953,54.40638126540052
25.999999999999996,2.099795146522964,54.594673809597055
26.099999999999998,2.0989269682809057,54.781993872131636
26.2,2.098026743737556,54.968300685923964
26.299999999999997,2.0970932240510116,55.1535517925416
26.4,2.0961251126741622,55.33770297459788
26.499999999999996,2.0951210636092146,55.52070818564418
26.599999999999998,2.0940796796045147,55.70251947748009
26.7,2.0929995102922483,55.88308692480303
26.799999999999997,2.0918790502656353,56.06235854711902
26.9,2.0907167370942226,56.24028022783458
26.999999999999996,2.0895109492759243,56.41679563044995
27.099999999999998,2.088260004124466,56.59184611177303
27.2,2.086962155590924,56.76537063207313
27.299999999999997,2.085615592018102,56.937305662094175
27.4,2.084218433826521,57.10758508684667
27.499999999999996,2.0827687311308525,57.27614010609844
27.599999999999998,2.0812644612857065,57.4428991314855
27.7,2.079703526359727,57.60778768016444
27.799999999999997,2.0780837505370724,57.770728264930604
27.9,2.0764028774454157,57.931640280727095
27.999999999999996,2.074658567409728,58.09043988747238
28.099999999999998,2.0728483946312255,58.24703988913743
28.2,2.0709698442909863,58.40134960900581
28.299999999999997,2.0690203095779,58.55327476105456
28.4,2.0669970886407762,58.70271731739804
28.499999999999996,2.0648973814646143,58.8495753717415
28.599999999999998,2.062718286671241,58.99374299879748
28.7,2.0604567982447373,59.13511010962396
28.799999999999997,2.058109802182322,59.27356230285086
28.9,2.055674073071595,59.4089807117691
28.999999999999996,2.0531462705953683,59.541241847265674
29.099999999999998,2.050522935965565,59.67021743659794
29.2,2.047800488288044,59.79577425801088
29.299999999999997,2.044975220860528,59.917773971213464
29.4,2.0420432974062255,60.03607294374303
29.499999999999996,2.0390007482461154,60.1505220732604
29.599999999999998,2.0358434664133385,60.26096660583482
29.7,2.032567203713581,60.36724595029335
29.799999999999997,2.0291675667358557,60.46919348872849
29.9,2.0256400128186036,60.56663638327625
29.999999999999996,2.0219798459766327,60.65939537929897
30.099999999999998,2.018182212794967,60.7472846051285
30.199999999999996,2.014242098296367,60.83011136855027
30.299999999999997,2.0101543217898965,60.90767595023386
30.4,2.0059135327086586,60.97977139434322
30.499999999999996,2.001514206445526,61.04618329658853
30.599999999999998,1.9969506401964836,61.106689590012394
30.699999999999996,1.9922169488220014,61.16106032883543
30.799999999999997,1.987307060737671,61.20905747072026
30.9,1.98221471384624,61.250434657848814
30.999999999999996,1.9769334515240387,61.28493699724519
31.099999999999998,1.9714566186757398,61.3123008408155
31.199999999999996,1.9657773578723272,61.332253565616604
31.299999999999997,1.9598886055881077,61.34451335490777
31.4,1.9537830885535992,61.34878898058301
31.499999999999996,1.947453320242103,61.344779587626235
31.599999999999998,1.940891597508783,61.33217448127754
31.699999999999996,1.9340899974020698,61.310652917645605
31.799999999999997,1.9270403741681954,61.27988389854861
31.9,1.919734356470659,61.23952597141402
31.999999999999996,1.9121633448473772,61.18922703511606
32.099999999999994,1.904318509429199,61.128624152677276
32.199999999999996,1.8961907879443582,61.05734337180833
32.3,1.887770884034276,60.97499955430711
32.4,1.8790492659068936,60.88119621538335
32.5,1.8700161653544256,60.775525374018834
32.599999999999994,1.8606615771630246,60.65756741551459
32.699999999999996,1.8509752589423663,60.52689096741537
32.8,1.8409467314035668,60.383052790036984
32.9,1.8305652791140732,60.22559768285301
33.0,1.8198199517583382,60.05405840802516
33.099999999999994,1.8086995659329914,59.86795563238201
33.199999999999996,1.7971927075050256,59.666797889166844
33.3,1.7852877345611065,59.45008156088484
33.4,1.7729727809754556,59.217290884580216
33.5,1.7602357606229357,58.96789798086835
33.599999999999994,1.7470643722628643,58.70136290803223
33.699999999999996,1.7334461051177388,58.41713374246779
33.8,1.719368245169456,58.11464668672761
33.9,1.7048178821937159,57.79332620636696
34.0,1.6897819175511486,57.45258519673905
34.099999999999994,1.674247072751239,57.091825180817246
34.199999999999996,1.6581998988023532,56.71043653904047
34.3,1.6416267863581868,56.3077987720858
34.4,1.6245139766675283,55.88328079736297
34.5,1.6068475733306808,55.43624127990849
34.599999999999994,1.5886135548619382,54.96602899822305
34.699999999999996,1.5697977880533556,54.47198324545143
34.8,1.5503860421306603,53.95343426614698
34.9,1.5303640036874404,53.40970372869167
35.0,1.5097172923790274,52.84010523326596
35.099999999999994,1.4884314773523533,52.24394485506759
35.199999999999996,1.4664920943830468,51.62052172228324
35.3,1.4438846636857485,50.969128628106915
35.4,1.4205947083583417,50.289052675885294
35.5,1.3966077734156066,49.57957595625403
35.599999999999994,1.3719094453624958,48.83997625490484
35.699999999999996,1.3464853722522139,48.06952778940403
35.8,1.3203212841692684,47.267501973259805
35.9,1.2934030140730315,46.433168205221826
36.0,1.2657165189327646,45.565794681579526
36.099999999999994,1.2372479010811852,44.66464922903078
36.199999999999996,1.2079834297096819,43.72900015549048
36.3,1.1779095624253002,42.75811711603839
36.4,1.1470129667866322,41.75127199103341
36.5,1.1152805417337444,40.707739773281666
36.599999999999994,1.0826994388255065,39.62679946101353
36.699999999999996,1.0492570831968242,38.50773495332344
36.8,1.0149411941479163,37.34983594464332
36.9,0.9797398052780956,36.152398814761725
37.0,0.9436412840776662,34.914727510873654
37.099999999999994,0.9066343508932339,33.63613441813897
37.199999999999996,0.8687080971841634,32.315941215250874
37.3,0.8298520029911968,30.95347971157164
37.4,0.7900559535418105,29.54809266246371
37.5,0.7493102549216004,28.099134559560017
37.599999999999994,0.7076056487456933,26.605972392838066
37.699999999999996,0.6649333257700852,25.06798638153221
37.8,0.6212849383885506,23.484570671087212
37.9,0.5766526119674201,21.85513399356522
38.0,0.5310289549773036,20.179100289137537
38.099999999999994,0.48440706788796273,18.455909286531377
38.199999999999996,0.43678055079981964,16.68501704055311
38.3,0.38814350979309087,14.865896425075379
38.4,0.3384905619830672,12.99803758014978
38.5,0.28781683927744905,11.080948312181789
38.599999999999994,0.23611799083914667,9.11415444639106
38.699999999999996,0.18339018426509884,7.097200131059324
38.8,0.12963010549870616,5.029648093349798
